频带数,中心频率 (Hz)
-17,0.02
-16,0.025
-15,0.0315
-14,0.04
-13,0.05
-12,0.063
-11,0.08
-10,0.1
-9,0.125
-8,0.16
-7,0.2
-6,0.25
-5,0.315
-4,0.4
-3,0.5
-2,0.63
-1,0.8
0,1
1,1.25
2,1.6
3,2
4,2.5
5,3.15
6,4
7,5
8,6.3
9,8
10,10
11,12.5
12,16
13,20
14,25
15,31.5
16,40
17,50
18,63
19,80
20,100
21,125
22,160
23,200
24,250
25,315
26,400
27,500
28,630
29,800
30,1000
31,1250
32,1600
33,2000
34,2500
35,3150
36,4000
37,5000
38,6300
39,8000
40,10000
41,12500
42,16000
43,20000
